#
#   version : EMCCD_Detection_Driver_Ver_2.05
#    num_fr : 14
#    num_tr : 0
#      time : 20180813 07:19:44.282 UTC
#      unix : 1534144784.282809
#       ntp : LOCK 0 0 0
#       seq : 629189
#       mul : 0 [A]
#      site : 02
#    latlon : 43.1928 -81.3157 324.0
#      text : Elginfield
#    stream : G
#     plate : 
#      geom : 512 512
#    filter : 0
#
#  fr    time    sum     seq       cx       cy      th      phi     lsp    mag  flag   bak    max
   31  -0.187   7431  629183   41.230   98.151  35.892   83.165  -9.678   7.80  0000   0.0    0.0
   32  -0.156  13045  629184   48.434  108.616  35.961   83.774 -10.289   7.19  0000   0.0    0.0
   33  -0.124  13669  629185   55.636  119.080  36.033   84.381 -10.339   7.14  0000   0.0    0.0
   34  -0.093  27596  629186   62.840  129.545  36.109   84.986 -11.102   6.38  0000   0.0    0.0
   35  -0.062  47259  629187   70.043  140.010  36.187   85.589 -11.686   5.79  0000   0.0    0.0
   36  -0.031  65384  629188   77.245  150.475  36.268   86.190 -12.039   5.44  0000   0.0    0.0
   37   0.000  73679  629189   84.448  160.939  36.353   86.789 -12.168   5.31  0000   0.0    0.0
   38   0.031  65622  629190   91.652  171.404  36.440   87.386 -12.043   5.44  0000   0.0    0.0
   39   0.062  62335  629191   98.855  181.869  36.531   87.981 -11.987   5.49  0000   0.0    0.0
   40   0.093  47422  629192  106.057  192.333  36.624   88.574 -11.690   5.79  0000   0.0    0.0
   41   0.124  32097  629193  113.261  202.798  36.720   89.164 -11.266   6.21  0000   0.0    0.0
   42   0.156  24345  629194  120.464  213.263  36.819   89.751 -10.966   6.51  0000   0.0    0.0
   43   0.187  15231  629195  127.667  223.728  36.921   90.336 -10.457   7.02  0000   0.0    0.0
   44   0.218  11597  629196  134.869  234.192  37.026   90.918 -10.161   7.32  0000   0.0    0.0
